# "== FILTER DATA - LAMBDA 9 SPECTROPHOTOMETER =="
# "   KITT PEAK NATIONAL OBSERVATORY - NOAO"
#  ------------------------------------------------
# "FILTER: WIYN HARRIS R                 "
# "DATE: ""12/ 6/94"   "TIME: ""16: 0:23"
# " CWL= "  6460.54A  "FWHM= " 1526.12A  "TMAX= "82.57 %
# "TCUTOFF= " 2.00 %  "SLITSIZE= "10 A
# 
# 
# 
# 
# "NPTS= " 901     "DISP= "10.00A/INTERVAL
   3000.00     -.010
   3010.00     -.010
   3020.00     -.005
   3030.00     -.010
   3040.00     -.005
   3050.00     -.010
   3060.00     -.005
   3070.00     -.005
   3080.00     -.005
   3090.00     -.010
   3100.00     -.010
   3110.00     -.010
   3120.00     -.010
   3130.00     -.010
   3140.00     -.010
   3150.00     -.005
   3160.00     -.010
   3170.00     -.005
   3180.00     -.025
   3190.00     -.035
   3200.00     -.005
   3210.00     -.005
   3220.00     -.010
   3230.00     -.010
   3240.00     -.010
   3250.00     -.005
   3260.00     -.005
   3270.00     -.005
   3280.00     -.005
   3290.00     -.005
   3300.00     -.010
   3310.00     -.010
   3320.00     -.005
   3330.00     -.005
   3340.00     -.010
   3350.00     -.005
   3360.00     -.005
   3370.00      .000
   3380.00     -.005
   3390.00     -.010
   3400.00     -.010
   3410.00     -.010
   3420.00     -.005
   3430.00     -.010
   3440.00     -.010
   3450.00     -.010
   3460.00     -.005
   3470.00     -.005
   3480.00     -.005
   3490.00     -.005
   3500.00     -.010
   3510.00     -.005
   3520.00     -.005
   3530.00     -.005
   3540.00     -.005
   3550.00     -.005
   3560.00     -.005
   3570.00     -.005
   3580.00     -.005
   3590.00     -.005
   3600.00     -.005
   3610.00     -.005
   3620.00     -.010
   3630.00     -.010
   3640.00     -.005
   3650.00     -.005
   3660.00     -.005
   3670.00     -.005
   3680.00     -.005
   3690.00     -.005
   3700.00     -.010
   3710.00     -.010
   3720.00     -.005
   3730.00      .000
   3740.00     -.005
   3750.00      .000
   3760.00     -.005
   3770.00     -.005
   3780.00     -.015
   3790.00     -.010
   3800.00     -.010
   3810.00     -.005
   3820.00     -.010
   3830.00     -.005
   3840.00      .000
   3850.00     -.005
   3860.00     -.005
   3870.00     -.005
   3880.00     -.005
   3890.00     -.010
   3900.00     -.005
   3910.00     -.010
   3920.00     -.005
   3930.00      .000
   3940.00     -.005
   3950.00     -.005
   3960.00     -.010
   3970.00     -.005
   3980.00     -.010
   3990.00     -.010
   4000.00     -.010
   4010.00     -.005
   4020.00     -.010
   4030.00     -.005
   4040.00     -.005
   4050.00     -.005
   4060.00     -.005
   4070.00     -.005
   4080.00     -.005
   4090.00     -.005
   4100.00     -.005
   4110.00     -.010
   4120.00     -.005
   4130.00     -.005
   4140.00     -.010
   4150.00     -.010
   4160.00     -.005
   4170.00     -.005
   4180.00     -.010
   4190.00     -.005
   4200.00     -.010
   4210.00     -.005
   4220.00     -.005
   4230.00     -.010
   4240.00     -.005
   4250.00     -.005
   4260.00     -.010
   4270.00     -.005
   4280.00     -.005
   4290.00     -.005
   4300.00     -.005
   4310.00     -.005
   4320.00     -.010
   4330.00     -.005
   4340.00     -.005
   4350.00     -.005
   4360.00     -.005
   4370.00     -.005
   4380.00     -.010
   4390.00      .000
   4400.00      .000
   4410.00     -.005
   4420.00     -.010
   4430.00     -.010
   4440.00     -.010
   4450.00     -.015
   4460.00     -.010
   4470.00     -.005
   4480.00      .000
   4490.00      .000
   4500.00     -.005
   4510.00     -.010
   4520.00     -.015
   4530.00     -.010
   4540.00     -.010
   4550.00     -.005
   4560.00     -.005
   4570.00     -.010
   4580.00      .000
   4590.00     -.005
   4600.00     -.005
   4610.00     -.010
   4620.00     -.010
   4630.00     -.010
   4640.00     -.010
   4650.00     -.010
   4660.00     -.010
   4670.00     -.010
   4680.00     -.010
   4690.00     -.005
   4700.00     -.005
   4710.00      .000
   4720.00     -.005
   4730.00     -.010
   4740.00     -.005
   4750.00     -.010
   4760.00     -.005
   4770.00     -.005
   4780.00     -.005
   4790.00     -.005
   4800.00     -.010
   4810.00     -.005
   4820.00     -.005
   4830.00     -.010
   4840.00     -.010
   4850.00     -.010
   4860.00     -.005
   4870.00     -.005
   4880.00     -.005
   4890.00     -.005
   4900.00     -.005
   4910.00     -.010
   4920.00     -.005
   4930.00     -.005
   4940.00     -.005
   4950.00     -.010
   4960.00     -.005
   4970.00     -.010
   4980.00      .000
   4990.00     -.005
   5000.00     -.005
   5010.00     -.005
   5020.00     -.005
   5030.00     -.005
   5040.00     -.005
   5050.00     -.005
   5060.00     -.005
   5070.00     -.010
   5080.00     -.010
   5090.00     -.005
   5100.00      .000
   5110.00     -.005
   5120.00     -.005
   5130.00     -.005
   5140.00     -.005
   5150.00     -.010
   5160.00      .000
   5170.00      .000
   5180.00      .000
   5190.00      .000
   5200.00     -.005
   5210.00     -.010
   5220.00     -.010
   5230.00     -.010
   5240.00     -.005
   5250.00     -.005
   5260.00     -.010
   5270.00     -.005
   5280.00     -.005
   5290.00     -.010
   5300.00     -.005
   5310.00     -.010
   5320.00     -.005
   5330.00     -.005
   5340.00     -.010
   5350.00     -.005
   5360.00     -.005
   5370.00     -.005
   5380.00     -.005
   5390.00     -.005
   5400.00      .000
   5410.00      .000
   5420.00      .005
   5430.00      .015
   5440.00      .045
   5450.00      .090
   5460.00      .180
   5470.00      .340
   5480.00      .605
   5490.00     1.045
   5500.00     1.710
   5510.00     2.695
   5520.00     4.035
   5530.00     5.785
   5540.00     8.030
   5550.00    10.715
   5560.00    13.825
   5570.00    17.320
   5580.00    21.080
   5590.00    25.130
   5600.00    29.290
   5610.00    33.395
   5620.00    37.430
   5630.00    41.470
   5640.00    45.280
   5650.00    48.930
   5660.00    52.275
   5670.00    55.395
   5680.00    58.285
   5690.00    60.945
   5700.00    63.340
   5710.00    65.570
   5720.00    67.560
   5730.00    69.395
   5740.00    71.030
   5750.00    72.415
   5760.00    73.750
   5770.00    74.915
   5780.00    75.950
   5790.00    76.855
   5800.00    77.675
   5810.00    78.455
   5820.00    79.030
   5830.00    79.635
   5840.00    80.095
   5850.00    80.475
   5860.00    80.945
   5870.00    81.230
   5880.00    81.555
   5890.00    81.785
   5900.00    81.955
   5910.00    82.135
   5920.00    82.270
   5930.00    82.370
   5940.00    82.465
   5950.00    82.485
   5960.00    82.450
   5970.00    82.565
   5980.00    82.490
   5990.00    82.490
   6000.00    82.415
   6010.00    82.370
   6020.00    82.310
   6030.00    82.200
   6040.00    82.035
   6050.00    81.995
   6060.00    81.910
   6070.00    81.765
   6080.00    81.580
   6090.00    81.415
   6100.00    81.295
   6110.00    81.100
   6120.00    80.900
   6130.00    80.660
   6140.00    80.495
   6150.00    80.285
   6160.00    80.065
   6170.00    79.865
   6180.00    79.595
   6190.00    79.345
   6200.00    79.120
   6210.00    78.895
   6220.00    78.620
   6230.00    78.340
   6240.00    78.120
   6250.00    77.805
   6260.00    77.545
   6270.00    77.215
   6280.00    76.935
   6290.00    76.560
   6300.00    76.350
   6310.00    76.035
   6320.00    75.780
   6330.00    75.405
   6340.00    75.085
   6350.00    74.825
   6360.00    74.525
   6370.00    74.165
   6380.00    73.755
   6390.00    73.525
   6400.00    73.135
   6410.00    72.830
   6420.00    72.555
   6430.00    72.125
   6440.00    71.805
   6450.00    71.485
   6460.00    71.155
   6470.00    70.720
   6480.00    70.345
   6490.00    70.075
   6500.00    69.725
   6510.00    69.335
   6520.00    68.985
   6530.00    68.630
   6540.00    68.190
   6550.00    67.790
   6560.00    67.490
   6570.00    67.110
   6580.00    66.775
   6590.00    66.415
   6600.00    65.960
   6610.00    65.525
   6620.00    65.200
   6630.00    64.850
   6640.00    64.455
   6650.00    64.070
   6660.00    63.695
   6670.00    63.235
   6680.00    62.880
   6690.00    62.530
   6700.00    62.120
   6710.00    61.675
   6720.00    61.355
   6730.00    60.870
   6740.00    60.455
   6750.00    60.010
   6760.00    59.595
   6770.00    59.230
   6780.00    58.720
   6790.00    58.265
   6800.00    57.805
   6810.00    57.375
   6820.00    56.910
   6830.00    56.445
   6840.00    56.010
   6850.00    55.550
   6860.00    55.100
   6870.00    54.555
   6880.00    54.175
   6890.00    53.655
   6900.00    53.155
   6910.00    52.710
   6920.00    52.225
   6930.00    51.795
   6940.00    51.275
   6950.00    50.870
   6960.00    50.365
   6970.00    49.870
   6980.00    49.395
   6990.00    48.910
   7000.00    48.425
   7010.00    47.955
   7020.00    47.495
   7030.00    47.045
   7040.00    46.630
   7050.00    46.075
   7060.00    45.615
   7070.00    45.140
   7080.00    44.690
   7090.00    44.310
   7100.00    43.720
   7110.00    43.345
   7120.00    42.850
   7130.00    42.470
   7140.00    41.950
   7150.00    41.520
   7160.00    41.100
   7170.00    40.565
   7180.00    40.075
   7190.00    39.725
   7200.00    39.220
   7210.00    38.850
   7220.00    38.375
   7230.00    37.915
   7240.00    37.450
   7250.00    37.015
   7260.00    36.640
   7270.00    36.165
   7280.00    35.735
   7290.00    35.270
   7300.00    34.895
   7310.00    34.510
   7320.00    34.010
   7330.00    33.550
   7340.00    33.145
   7350.00    32.795
   7360.00    32.340
   7370.00    31.930
   7380.00    31.440
   7390.00    31.135
   7400.00    30.660
   7410.00    30.265
   7420.00    29.860
   7430.00    29.445
   7440.00    28.990
   7450.00    28.680
   7460.00    28.275
   7470.00    27.885
   7480.00    27.480
   7490.00    27.080
   7500.00    26.700
   7510.00    26.290
   7520.00    25.925
   7530.00    25.525
   7540.00    25.120
   7550.00    24.690
   7560.00    24.345
   7570.00    24.020
   7580.00    23.655
   7590.00    23.255
   7600.00    22.880
   7610.00    22.520
   7620.00    22.225
   7630.00    21.890
   7640.00    21.510
   7650.00    21.140
   7660.00    20.790
   7670.00    20.490
   7680.00    20.120
   7690.00    19.905
   7700.00    19.515
   7710.00    19.165
   7720.00    18.870
   7730.00    18.495
   7740.00    18.170
   7750.00    17.880
   7760.00    17.585
   7770.00    17.305
   7780.00    16.975
   7790.00    16.700
   7800.00    16.405
   7810.00    16.140
   7820.00    15.800
   7830.00    15.560
   7840.00    15.285
   7850.00    14.940
   7860.00    14.730
   7870.00    14.395
   7880.00    14.190
   7890.00    13.985
   7900.00    13.670
   7910.00    13.375
   7920.00    13.155
   7930.00    12.875
   7940.00    12.610
   7950.00    12.425
   7960.00    12.250
   7970.00    11.995
   7980.00    11.715
   7990.00    11.495
   8000.00    11.275
   8010.00    11.050
   8020.00    10.865
   8030.00    10.630
   8040.00    10.405
   8050.00    10.185
   8060.00     9.985
   8070.00     9.765
   8080.00     9.595
   8090.00     9.440
   8100.00     9.235
   8110.00     9.040
   8120.00     8.840
   8130.00     8.685
   8140.00     8.440
   8150.00     8.330
   8160.00     8.120
   8170.00     7.940
   8180.00     7.775
   8190.00     7.610
   8200.00     7.410
   8210.00     7.240
   8220.00     7.145
   8230.00     7.035
   8240.00     6.855
   8250.00     6.750
   8260.00     6.555
   8270.00     6.410
   8280.00     6.280
   8290.00     6.155
   8300.00     6.025
   8310.00     5.860
   8320.00     5.790
   8330.00     5.625
   8340.00     5.485
   8350.00     5.380
   8360.00     5.265
   8370.00     5.200
   8380.00     5.035
   8390.00     4.895
   8400.00     4.760
   8410.00     4.720
   8420.00     4.615
   8430.00     4.550
   8440.00     4.420
   8450.00     4.290
   8460.00     4.225
   8470.00     4.110
   8480.00     4.040
   8490.00     3.930
   8500.00     3.810
   8510.00     3.675
   8520.00     3.640
   8530.00     3.560
   8540.00     3.465
   8550.00     3.365
   8560.00     3.330
   8570.00     3.230
   8580.00     3.110
   8590.00     3.130
   8600.00     3.000
   8610.00     2.915
   8620.00     2.875
   8630.00     2.825
   8640.00     2.745
   8650.00     2.675
   8660.00     2.585
   8670.00     2.555
   8680.00     2.495
   8690.00     2.405
   8700.00     2.390
   8710.00     2.340
   8720.00     2.310
   8730.00     2.210
   8740.00     2.155
   8750.00     2.105
   8760.00     2.075
   8770.00     2.025
   8780.00     1.965
   8790.00     1.920
   8800.00     1.880
   8810.00     1.850
   8820.00     1.845
   8830.00     1.770
   8840.00     1.740
   8850.00     1.680
   8860.00     1.615
   8870.00     1.570
   8880.00     1.535
   8890.00     1.500
   8900.00     1.485
   8910.00     1.455
   8920.00     1.420
   8930.00     1.390
   8940.00     1.365
   8950.00     1.285
   8960.00     1.305
   8970.00     1.250
   8980.00     1.220
   8990.00     1.200
   9000.00     1.170
   9010.00     1.120
   9020.00     1.100
   9030.00     1.080
   9040.00     1.055
   9050.00     1.020
   9060.00     1.010
   9070.00      .960
   9080.00      .955
   9090.00      .975
   9100.00      .900
   9110.00      .875
   9120.00      .855
   9130.00      .805
   9140.00      .800
   9150.00      .805
   9160.00      .815
   9170.00      .745
   9180.00      .770
   9190.00      .755
   9200.00      .740
   9210.00      .700
   9220.00      .680
   9230.00      .670
   9240.00      .645
   9250.00      .615
   9260.00      .615
   9270.00      .600
   9280.00      .615
   9290.00      .525
   9300.00      .515
   9310.00      .525
   9320.00      .545
   9330.00      .540
   9340.00      .495
   9350.00      .495
   9360.00      .495
   9370.00      .465
   9380.00      .465
   9390.00      .470
   9400.00      .445
   9410.00      .405
   9420.00      .420
   9430.00      .395
   9440.00      .385
   9450.00      .380
   9460.00      .380
   9470.00      .400
   9480.00      .365
   9490.00      .365
   9500.00      .340
   9510.00      .350
   9520.00      .310
   9530.00      .320
   9540.00      .315
   9550.00      .300
   9560.00      .310
   9570.00      .255
   9580.00      .290
   9590.00      .270
   9600.00      .290
   9610.00      .300
   9620.00      .230
   9630.00      .265
   9640.00      .235
   9650.00      .240
   9660.00      .235
   9670.00      .225
   9680.00      .210
   9690.00      .205
   9700.00      .165
   9710.00      .285
   9720.00      .190
   9730.00      .190
   9740.00      .190
   9750.00      .175
   9760.00      .185
   9770.00      .185
   9780.00      .185
   9790.00      .180
   9800.00      .145
   9810.00      .140
   9820.00      .170
   9830.00      .160
   9840.00      .145
   9850.00      .155
   9860.00      .135
   9870.00      .135
   9880.00      .150
   9890.00      .135
   9900.00      .085
   9910.00      .150
   9920.00      .140
   9930.00      .095
   9940.00      .130
   9950.00      .155
   9960.00      .130
   9970.00      .085
   9980.00      .135
   9990.00      .115
  10000.00      .080
  10010.00      .110
  10020.00      .080
  10030.00      .150
  10040.00      .105
  10050.00      .160
  10060.00      .070
  10070.00      .130
  10080.00      .110
  10090.00      .050
  10100.00      .050
  10110.00      .040
  10120.00      .060
  10130.00      .060
  10140.00      .100
  10150.00      .055
  10160.00      .070
  10170.00      .105
  10180.00      .015
  10190.00      .075
  10200.00      .115
  10210.00      .120
  10220.00      .045
  10230.00      .020
  10240.00      .065
  10250.00      .070
  10260.00      .030
  10270.00      .105
  10280.00      .025
  10290.00      .020
  10300.00      .075
  10310.00      .025
  10320.00      .090
  10330.00      .025
  10340.00      .090
  10350.00      .080
  10360.00      .040
  10370.00      .085
  10380.00      .020
  10390.00      .020
  10400.00      .065
  10410.00      .090
  10420.00      .035
  10430.00      .050
  10440.00      .070
  10450.00      .050
  10460.00      .040
  10470.00      .060
  10480.00      .065
  10490.00      .060
  10500.00      .015
  10510.00     -.045
  10520.00      .055
  10530.00      .050
  10540.00      .025
  10550.00      .025
  10560.00      .010
  10570.00      .030
  10580.00      .055
  10590.00      .060
  10600.00      .035
  10610.00      .065
  10620.00      .060
  10630.00      .025
  10640.00      .080
  10650.00     -.015
  10660.00      .000
  10670.00      .055
  10680.00     -.010
  10690.00     -.005
  10700.00     -.035
  10710.00     -.015
  10720.00      .040
  10730.00      .025
  10740.00      .030
  10750.00      .040
  10760.00      .015
  10770.00      .010
  10780.00      .055
  10790.00      .005
  10800.00      .030
  10810.00      .020
  10820.00      .040
  10830.00      .035
  10840.00      .065
  10850.00      .035
  10860.00     -.045
  10870.00     -.040
  10880.00      .015
  10890.00     -.010
  10900.00     -.010
  10910.00     -.025
  10920.00      .030
  10930.00      .010
  10940.00      .015
  10950.00      .025
  10960.00     -.040
  10970.00      .015
  10980.00      .030
  10990.00     -.005
  11000.00      .070
  11010.00      .045
  11020.00      .005
  11030.00     -.060
  11040.00     -.035
  11050.00      .030
  11060.00     -.010
  11070.00     -.040
  11080.00     -.030
  11090.00      .055
  11100.00     -.030
  11110.00      .000
  11120.00      .030
  11130.00      .070
  11140.00      .045
  11150.00      .010
  11160.00      .040
  11170.00     -.010
  11180.00     -.005
  11190.00     -.020
  11200.00     -.040
  11210.00     -.060
  11220.00     -.025
  11230.00      .030
  11240.00      .020
  11250.00      .050
  11260.00      .045
  11270.00      .000
  11280.00      .055
  11290.00      .060
  11300.00      .030
  11310.00      .020
  11320.00     -.060
  11330.00     -.120
  11340.00     -.105
  11350.00      .045
  11360.00     -.010
  11370.00      .015
  11380.00     -.005
  11390.00      .000
  11400.00      .030
  11410.00      .015
  11420.00      .005
  11430.00     -.035
  11440.00      .015
  11450.00      .040
  11460.00      .055
  11470.00      .080
  11480.00      .015
  11490.00     -.010
  11500.00      .020
  11510.00     -.020
  11520.00      .035
  11530.00      .035
  11540.00     -.020
  11550.00     -.050
  11560.00     -.070
  11570.00     -.070
  11580.00     -.075
  11590.00     -.030
  11600.00      .000
  11610.00     -.075
  11620.00      .000
  11630.00      .005
  11640.00     -.050
  11650.00     -.015
  11660.00      .005
  11670.00     -.015
  11680.00      .055
  11690.00     -.005
  11700.00     -.015
  11710.00     -.025
  11720.00     -.020
  11730.00     -.075
  11740.00      .060
  11750.00     -.010
  11760.00     -.005
  11770.00      .010
  11780.00     -.010
  11790.00     -.040
  11800.00     -.010
  11810.00      .040
  11820.00      .010
  11830.00      .020
  11840.00      .005
  11850.00     -.005
  11860.00     -.020
  11870.00     -.085
  11880.00     -.095
  11890.00     -.160
  11900.00     -.160
  11910.00     -.020
  11920.00     -.055
  11930.00     -.015
  11940.00      .070
  11950.00     -.035
  11960.00     -.010
  11970.00     -.005
  11980.00      .020
  11990.00     -.010
  12000.00     -.025
 